id	start_time	duration	norm_pos_x	norm_pos_y
0	0.000	0.300	0.486	0.093
1	0.332	0.168	0.533	0.085
2	0.532	0.432	0.601	0.065
3	1.032	0.200	0.349	0.572
4	1.264	0.168	0.295	0.622
5	1.564	0.436	0.327	0.622
6	2.032	0.332	0.542	0.067
7	2.400	0.464	0.505	0.101
8	2.900	0.232	0.640	0.079
9	3.164	0.168	0.555	0.088
10	3.532	0.768	0.282	0.628
11	4.364	0.200	0.529	0.611
12	4.600	0.200	0.599	0.606
13	4.864	0.300	0.482	0.110
14	5.400	0.564	0.268	0.638
15	6.000	0.300	0.356	0.614
16	6.332	0.332	0.287	0.633
17	6.732	0.268	0.449	0.609
18	7.032	0.300	0.594	0.591
19	7.364	0.400	0.405	0.618
20	7.800	0.300	0.350	0.635
21	8.132	0.232	0.265	0.645
22	8.400	0.200	0.315	0.624
23	8.632	0.232	0.500	0.611
24	8.900	0.200	0.574	0.614
25	9.132	0.700	0.336	0.642
26	9.864	0.600	0.302	0.627
27	10.500	0.464	0.379	0.625
28	11.000	0.700	0.457	0.625
29	11.732	0.400	0.603	0.612
30	12.264	0.436	0.280	0.595
31	12.764	0.932	0.425	0.598
32	13.732	0.400	0.524	0.585
33	14.164	0.168	0.590	0.584
34	14.396	0.800	0.381	0.552
35	15.232	0.364	0.472	0.542
36	15.896	0.268	0.492	0.128
37	16.232	0.164	0.369	0.610
38	16.432	0.564	0.287	0.670
39	17.032	1.132	0.263	0.659
40	18.196	0.436	0.346	0.644
41	18.664	0.468	0.416	0.639
42	19.164	0.532	0.498	0.643
43	19.732	0.232	0.567	0.627
44	19.996	0.436	0.615	0.624
45	20.496	0.600	0.270	0.601
46	21.132	0.164	0.328	0.595
47	21.332	0.400	0.438	0.595
48	21.764	0.232	0.461	0.592
49	22.032	0.300	0.553	0.587
50	22.364	1.100	0.613	0.576
51	23.496	0.268	0.487	0.128
52	23.832	1.164	0.279	0.663
53	25.032	0.300	0.335	0.653
54	25.364	1.200	0.417	0.649
55	26.596	0.300	0.506	0.641
56	26.932	0.532	0.593	0.633
57	27.496	0.168	0.615	0.662
58	27.696	1.236	0.269	0.614
59	28.964	0.168	0.334	0.603
60	29.196	0.700	0.428	0.612
61	29.932	0.164	0.507	0.599
62	30.132	0.600	0.577	0.589
63	30.932	0.164	0.429	0.546
64	31.132	0.200	0.433	0.547
65	31.496	0.400	0.330	0.646
66	31.932	0.200	0.305	0.633
67	32.164	0.432	0.398	0.634
68	32.632	0.232	0.341	0.659
69	32.896	0.336	0.384	0.661
70	33.264	0.500	0.481	0.642
71	34.032	0.264	0.414	0.671
72	34.632	0.264	0.402	0.661
73	34.932	0.332	0.489	0.670
74	35.296	0.936	0.356	0.670
75	36.264	0.368	0.413	0.651
76	36.664	0.632	0.595	0.619
77	37.364	0.668	0.276	0.651
78	38.064	0.200	0.547	0.642
79	38.296	1.268	0.594	0.640
80	39.632	1.564	0.312	0.638
81	41.364	0.564	0.304	0.629
82	42.064	0.900	0.290	0.668
83	43.328	2.000	0.602	0.629
84	45.364	0.364	0.299	0.642
85	45.764	0.664	0.256	0.694
86	46.496	0.732	0.582	0.647
87	47.264	3.264	0.282	0.638
88	50.596	0.168	0.521	0.620
89	50.996	0.468	0.293	0.665
90	51.528	0.200	0.528	0.623
91	51.764	0.400	0.605	0.616
92	52.228	0.800	0.273	0.662
93	53.096	0.700	0.584	0.625
94	53.864	0.364	0.279	0.662
95	54.264	0.400	0.601	0.638
96	54.728	0.336	0.273	0.628
97	55.164	0.964	0.280	0.662
98	56.164	2.064	0.284	0.665
99	58.364	0.232	0.347	0.672
100	58.628	1.000	0.268	0.696
101	59.696	0.300	0.534	0.625
102	60.028	0.336	0.262	0.663
103	60.528	0.768	0.265	0.690
104	61.328	1.836	0.609	0.619
105	63.196	0.932	0.290	0.651
106	64.296	2.132	0.297	0.664
107	66.764	0.300	0.280	0.656
108	67.196	0.800	0.297	0.693
109	68.064	1.164	0.603	0.630
110	69.328	0.168	0.296	0.651
111	69.764	0.164	0.604	0.675
112	69.964	0.396	0.296	0.667
113	70.528	0.668	0.290	0.686
114	71.228	0.232	0.243	0.616
115	71.528	0.300	0.587	0.562
116	71.860	0.700	0.298	0.649
117	72.596	0.332	0.237	0.680
118	73.160	0.336	0.569	0.646
119	73.528	0.300	0.615	0.647
120	73.896	1.100	0.280	0.682
121	75.096	0.432	0.295	0.707
122	75.560	0.236	0.556	0.638
123	76.160	0.668	0.278	0.684
124	76.896	1.264	0.585	0.643
125	78.228	0.268	0.291	0.671
126	78.636	0.324	0.282	0.731
127	78.996	1.800	0.258	0.698
128	80.828	0.468	0.556	0.644
129	81.328	0.368	0.303	0.684
130	81.860	0.536	0.300	0.714
131	82.628	0.432	0.293	0.690
132	83.096	0.232	0.370	0.664
133	83.360	0.536	0.263	0.685
134	83.960	0.336	0.495	0.654
135	84.396	1.864	0.284	0.689
136	86.328	0.732	0.607	0.642
137	87.096	0.964	0.280	0.683
138	88.228	0.400	0.563	0.679
139	88.660	0.268	0.303	0.706
140	89.096	0.400	0.380	0.727
141	89.528	0.768	0.587	0.678
142	90.460	0.368	0.609	0.696
143	90.928	0.268	0.288	0.713
144	91.228	0.400	0.580	0.678
145	91.660	0.600	0.633	0.677
146	92.296	0.500	0.584	0.671
147	92.960	0.200	0.600	0.708
148	93.228	0.800	0.278	0.713
149	94.060	0.436	0.572	0.648
150	94.560	1.068	0.289	0.696
151	95.660	0.536	0.242	0.699
152	96.228	0.268	0.282	0.660
153	96.528	0.332	0.401	0.657
154	96.896	0.832	0.254	0.699
155	97.860	1.332	0.265	0.707
156	99.228	0.200	0.292	0.714
157	99.460	0.300	0.271	0.712
158	99.792	0.568	0.502	0.676
159	100.392	0.300	0.303	0.708
160	100.860	0.432	0.332	0.723
161	101.392	0.200	0.497	0.677
162	101.660	1.432	0.277	0.703
163	103.128	0.264	0.574	0.649
164	103.428	0.400	0.284	0.702
165	103.860	1.132	0.253	0.732
166	105.060	1.068	0.605	0.647
167	106.260	0.300	0.509	0.703
168	106.592	0.268	0.588	0.666
169	106.928	0.432	0.300	0.706
170	107.392	0.768	0.581	0.685
171	108.192	0.300	0.425	0.727
172	108.528	0.532	0.268	0.732
173	109.260	1.332	0.291	0.746
174	110.628	0.900	0.240	0.725
175	111.728	0.232	0.357	0.745
176	111.992	0.300	0.277	0.731
177	112.492	0.168	0.383	0.745
178	112.692	1.036	0.266	0.744
179	113.828	0.300	0.470	0.686
180	114.160	0.768	0.256	0.738
181	115.060	0.200	0.547	0.697
182	115.292	0.900	0.601	0.676
183	116.228	0.632	0.286	0.704
184	116.892	0.600	0.269	0.711
185	117.528	0.300	0.360	0.703
186	117.860	0.700	0.265	0.724
187	118.692	0.568	0.263	0.775
188	119.328	0.400	0.463	0.730
189	119.760	0.768	0.283	0.757
190	120.760	0.300	0.341	0.765
191	121.092	0.536	0.271	0.746
192	121.660	0.500	0.222	0.752
193	122.192	0.300	0.275	0.715
194	122.660	0.368	0.318	0.752
195	123.092	0.268	0.525	0.707
196	123.428	0.600	0.293	0.720
197	124.060	0.500	0.366	0.704
198	124.592	0.536	0.256	0.713
199	125.228	0.764	0.294	0.725
200	126.060	1.200	0.583	0.673
201	127.592	0.300	0.538	0.744
202	128.024	0.800	0.313	0.727
203	128.892	0.200	0.447	0.713
204	129.292	0.732	0.331	0.758
205	130.060	0.732	0.272	0.736
206	130.824	0.568	0.491	0.715
207	131.424	0.368	0.278	0.727
208	131.824	0.400	0.575	0.668
209	132.292	0.300	0.318	0.713
210	132.624	0.300	0.572	0.679
211	132.992	0.732	0.285	0.707
212	133.760	0.264	0.333	0.716
213	134.060	0.764	0.277	0.740
214	134.860	0.932	0.263	0.749
215	135.824	0.468	0.472	0.718
216	136.392	0.800	0.333	0.738
217	137.224	0.468	0.269	0.733
218	137.724	1.336	0.259	0.758
219	139.092	2.868	0.258	0.738
220	142.192	4.568	0.595	0.683
221	146.824	3.936	0.265	0.736
222	150.824	0.336	0.515	0.711
223	151.192	1.468	0.589	0.712
224	152.860	0.532	0.422	0.723
225	153.860	0.996	0.257	0.747
226	154.892	0.164	0.299	0.743
227	155.092	1.432	0.275	0.734
228	156.556	0.436	0.552	0.681
229	157.024	0.900	0.300	0.716
230	157.956	0.336	0.350	0.709
231	158.324	0.332	0.277	0.718
232	158.724	0.268	0.420	0.714
233	159.056	0.936	0.583	0.701
234	160.192	2.364	0.608	0.708
235	162.824	1.832	0.601	0.727
236	164.692	0.364	0.495	0.723
237	165.124	2.800	0.271	0.732
238	168.092	0.864	0.285	0.761
239	168.992	0.200	0.358	0.719
240	169.356	0.600	0.316	0.754
241	169.992	0.364	0.264	0.746
242	170.392	0.532	0.353	0.726
243	170.956	0.236	0.274	0.760
244	171.356	0.900	0.318	0.735
245	172.292	0.164	0.359	0.712
246	172.492	0.232	0.420	0.715
247	172.792	0.232	0.568	0.704
248	173.056	1.368	0.615	0.703
249	174.524	0.700	0.617	0.744
250	175.256	0.236	0.595	0.733
251	175.592	0.532	0.282	0.736
252	176.192	1.400	0.598	0.710
253	177.756	0.636	0.615	0.731
254	178.592	0.332	0.617	0.744
255	178.956	0.236	0.287	0.727
256	179.256	1.400	0.603	0.710
257	180.724	0.232	0.294	0.728
258	180.992	2.932	0.245	0.732
259	184.124	1.064	0.276	0.745
260	185.224	0.200	0.304	0.745
261	185.456	0.268	0.279	0.760
262	185.756	0.768	0.583	0.715
263	186.556	1.200	0.606	0.703
264	187.824	2.200	0.262	0.746
265	190.056	0.832	0.299	0.727
266	191.056	1.068	0.598	0.676
267	192.288	2.468	0.621	0.732
268	194.924	1.200	0.613	0.752
269	196.156	1.400	0.276	0.753
270	197.588	0.368	0.300	0.740
271	197.988	0.400	0.285	0.749
272	198.456	0.400	0.569	0.728
273	198.888	1.436	0.612	0.714
274	200.356	0.168	0.636	0.712
275	200.556	3.932	0.611	0.733
276	204.624	0.764	0.607	0.728
277	205.456	1.800	0.259	0.773
278	207.388	2.600	0.258	0.762
279	210.188	0.436	0.276	0.765
280	210.656	0.200	0.301	0.762
281	210.888	2.032	0.271	0.767
282	213.088	0.868	0.283	0.778
283	213.988	0.168	0.522	0.715
284	214.188	0.732	0.606	0.709
285	215.120	0.468	0.630	0.737
286	215.620	0.668	0.547	0.732
287	216.320	0.400	0.593	0.718
288	216.788	0.568	0.294	0.752
289	217.420	4.836	0.602	0.719
290	222.288	0.568	0.302	0.733
291	222.888	1.168	0.255	0.750
292	224.088	0.332	0.305	0.729
293	224.620	0.368	0.309	0.772
294	225.056	1.164	0.253	0.738
295	226.256	0.332	0.340	0.735
296	226.620	0.368	0.266	0.728
297	227.120	0.168	0.260	0.767
298	227.320	0.600	0.250	0.734
299	227.956	0.400	0.211	0.737
300	228.388	0.732	0.269	0.737
301	229.156	0.900	0.589	0.701
302	230.188	1.200	0.611	0.727
303	231.456	0.232	0.320	0.731
304	231.888	0.300	0.320	0.768
305	232.220	0.168	0.531	0.714
306	232.420	1.168	0.273	0.754
307	233.788	0.268	0.614	0.725
308	234.088	1.332	0.255	0.754
309	235.588	3.800	0.264	0.766
310	239.420	0.200	0.290	0.774
311	239.652	0.600	0.263	0.789
312	240.320	0.268	0.600	0.702
313	240.652	1.600	0.252	0.760
314	242.288	1.064	0.267	0.739
315	243.388	0.264	0.270	0.740
316	243.688	2.432	0.251	0.777
317	246.188	0.700	0.543	0.730
318	246.920	1.068	0.607	0.723
319	248.152	1.200	0.624	0.739
320	249.388	1.764	0.606	0.704
321	251.220	1.700	0.267	0.766
322	252.952	0.236	0.369	0.727
323	253.220	9.232	0.406	0.729
324	262.520	0.432	0.285	0.723
325	263.188	0.764	0.436	0.764
326	264.052	0.168	0.367	0.777
327	264.388	0.464	0.270	0.762
328	264.888	0.332	0.235	0.788
329	265.252	1.300	0.272	0.710
330	266.588	0.700	0.225	0.694
331	267.320	0.300	0.374	0.692
332	267.652	3.532	0.271	0.722
333	271.252	0.468	0.584	0.697
334	272.184	0.868	0.590	0.736
335	273.120	0.164	0.306	0.747
336	273.320	2.632	0.372	0.746
337	275.984	1.436	0.284	0.779
338	277.452	3.168	0.278	0.768
339	280.652	0.200	0.232	0.782
340	281.020	5.300	0.265	0.798
341	286.352	0.468	0.574	0.758
342	286.852	0.300	0.630	0.781
343	287.184	0.700	0.614	0.759
344	287.920	0.300	0.337	0.754
345	288.252	0.600	0.286	0.778
346	289.020	2.632	0.282	0.797
347	291.684	1.168	0.259	0.784
348	292.884	0.736	0.298	0.760
349	293.652	0.500	0.432	0.748
350	294.184	1.400	0.279	0.793
351	295.620	0.232	0.288	0.830
352	295.916	0.736	0.528	0.777
353	296.952	0.532	0.293	0.823
354	297.516	0.436	0.285	0.802
355	298.016	0.200	0.509	0.735
356	298.384	0.868	0.351	0.815
357	299.284	0.800	0.311	0.826
358	300.116	3.000	0.278	0.795
359	303.184	0.632	0.590	0.725
360	303.984	0.268	0.629	0.787
361	304.284	1.900	0.303	0.775
362	306.216	2.136	0.262	0.780
363	308.552	0.464	0.270	0.799
364	309.052	0.332	0.335	0.750
365	309.416	0.200	0.240	0.750
366	309.784	0.468	0.255	0.775
367	310.284	0.332	0.302	0.749
368	310.652	1.132	0.371	0.745
369	312.084	0.732	0.427	0.773
370	312.852	0.832	0.584	0.735
371	313.884	1.268	0.612	0.737
372	315.316	0.768	0.606	0.736
373	316.116	0.268	0.625	0.769
374	316.552	1.564	0.256	0.784
375	318.284	1.368	0.255	0.790
376	319.984	1.400	0.287	0.782
377	321.416	0.600	0.258	0.763
378	322.084	0.232	0.522	0.722
379	322.352	1.996	0.575	0.725
380	324.384	0.164	0.609	0.734
381	324.584	0.164	0.588	0.786
382	324.784	0.200	0.621	0.771
383	325.016	0.168	0.608	0.789
384	325.248	4.436	0.297	0.750
385	329.716	1.400	0.276	0.780
386	331.148	0.336	0.276	0.792
387	331.516	0.332	0.270	0.784
388	332.384	0.332	0.265	0.785
389	332.748	0.536	0.339	0.766
390	333.316	2.732	0.291	0.803
391	336.084	0.164	0.392	0.779
392	336.284	0.900	0.408	0.780
393	337.316	0.400	0.432	0.782
394	337.748	0.400	0.437	0.766
395	338.184	0.164	0.451	0.773
396	338.384	0.400	0.416	0.772
